# time 	, fwhm gauss rho, J length, Bfrac length, current L/d, Bfrac L/d
0.10001, 0.110969, 0.380234, 0.334141, 3.426505e+00, 3.011128e+00
0.11002, 0.102569, 0.373828, 0.342578, 3.644640e+00, 3.339968e+00
0.12002, 0.094797, 0.367734, 0.351641, 3.879193e+00, 3.709422e+00
0.13002, 0.087985, 0.362109, 0.361172, 4.115590e+00, 4.104935e+00
0.14002, 0.082479, 0.357109, 0.370547, 4.329724e+00, 4.492646e+00
0.15000, 0.078616, 0.352734, 0.379297, 4.486811e+00, 4.824688e+00
0.16003, 0.076556, 0.348984, 0.387109, 4.558579e+00, 5.056584e+00
0.17000, 0.076275, 0.345859, 0.393984, 4.534377e+00, 5.165318e+00
0.18000, 0.077512, 0.343047, 0.399766, 4.425725e+00, 5.157467e+00
0.19001, 0.079923, 0.340391, 0.404609, 4.258972e+00, 5.062477e+00
0.20001, 0.083214, 0.338203, 0.408516, 4.064259e+00, 4.909220e+00
0.21003, 0.087236, 0.335859, 0.411641, 3.850016e+00, 4.718709e+00
0.22001, 0.091936, 0.333828, 0.414297, 3.631105e+00, 4.506377e+00
0.23001, 0.097325, 0.331797, 0.416484, 3.409176e+00, 4.279331e+00
0.24001, 0.103357, 0.329609, 0.418359, 3.189047e+00, 4.047723e+00
0.25003, 0.109942, 0.328828, 0.419141, 2.990917e+00, 3.812371e+00
0.26003, 0.116918, 0.326641, 0.419453, 2.793767e+00, 3.587595e+00
0.27002, 0.124128, 0.324609, 0.419609, 2.615115e+00, 3.380452e+00
0.28001, 0.131395, 0.322578, 0.419922, 2.455025e+00, 3.195873e+00
0.29001, 0.138504, 0.320703, 0.420391, 2.315486e+00, 3.035232e+00
0.30001, 0.145176, 0.318984, 0.421016, 2.197230e+00, 2.900042e+00
0.31002, 0.151053, 0.317266, 0.421641, 2.100362e+00, 2.791346e+00
0.32003, 0.155634, 0.315547, 0.422422, 2.027491e+00, 2.714197e+00
0.33002, 0.158146, 0.313984, 0.423203, 1.985405e+00, 2.676024e+00
0.34000, 0.157605, 0.312578, 0.424297, 1.983297e+00, 2.692148e+00
0.35003, 0.153086, 0.311172, 0.425391, 2.032660e+00, 2.778768e+00
0.36002, 0.145280, 0.309766, 0.426797, 2.132198e+00, 2.937754e+00
0.37001, 0.136750, 0.308516, 0.428203, 2.256060e+00, 3.131290e+00
0.38001, 0.129182, 0.307266, 0.429766, 2.378551e+00, 3.326827e+00
0.39001, 0.122798, 0.306172, 0.431641, 2.493306e+00, 3.515059e+00
0.40001, 0.117374, 0.305078, 0.433359, 2.599204e+00, 3.692135e+00
0.41001, 0.112682, 0.303984, 0.435391, 2.697716e+00, 3.863884e+00
0.42003, 0.108541, 0.303047, 0.437891, 2.791999e+00, 4.034328e+00
0.43002, 0.104872, 0.302109, 0.440703, 2.880739e+00, 4.202288e+00
0.44001, 0.101583, 0.301172, 0.443828, 2.964792e+00, 4.369127e+00
0.45002, 0.099487, 0.300391, 0.447734, 3.019388e+00, 4.500419e+00
0.46002, 0.100084, 0.299453, 0.452578, 2.992006e+00, 4.521965e+00
0.47003, 0.100880, 0.298672, 0.459453, 2.960659e+00, 4.554443e+00
0.48002, 0.101784, 0.298203, 0.468516, 2.929759e+00, 4.603030e+00
0.49001, 0.102735, 0.297422, 0.482109, 2.895034e+00, 4.692739e+00
0.50003, 0.103702, 0.296641, 0.504141, 2.860504e+00, 4.861426e+00
0.51001, 0.104640, 0.295859, 0.731641, 2.827402e+00, 6.991977e+00
0.52002, 0.105530, 0.295547, 0.731172, 2.800589e+00, 6.928553e+00
0.53002, 0.106369, 0.295234, 0.729766, 2.775567e+00, 6.860696e+00
0.54003, 0.107188, 0.294609, 0.727734, 2.748517e+00, 6.789296e+00
0.55003, 0.107999, 0.294453, 0.725078, 2.726432e+00, 6.713722e+00
0.56003, 0.108801, 0.294609, 0.721953, 2.707789e+00, 6.635554e+00
0.57003, 0.109593, 0.294609, 0.718359, 2.688202e+00, 6.554765e+00
0.58002, 0.110306, 0.294609, 0.714297, 2.670846e+00, 6.475614e+00
0.59003, 0.110882, 0.294922, 0.709766, 2.659781e+00, 6.401088e+00
0.60003, 0.111273, 0.295391, 0.704766, 2.654644e+00, 6.333653e+00
0.61002, 0.111431, 0.295703, 0.699453, 2.653678e+00, 6.276983e+00
0.62001, 0.111342, 0.296172, 0.693828, 2.660019e+00, 6.231502e+00
0.63002, 0.111036, 0.296484, 0.687891, 2.670166e+00, 6.195208e+00
0.64002, 0.110657, 0.297266, 0.681797, 2.686359e+00, 6.161329e+00
0.65001, 0.110430, 0.298203, 0.675547, 2.700382e+00, 6.117423e+00
0.66000, 0.110615, 0.299453, 0.669141, 2.707167e+00, 6.049280e+00
0.67002, 0.111433, 0.301484, 0.662891, 2.705513e+00, 5.948763e+00
0.68003, 0.112904, 0.304297, 0.656641, 2.695185e+00, 5.815926e+00
0.69002, 0.114805, 0.307422, 0.650234, 2.677782e+00, 5.663831e+00
0.70001, 0.116761, 0.310234, 0.644297, 2.657007e+00, 5.518091e+00
0.71003, 0.118546, 0.321797, 0.637422, 2.714527e+00, 5.376990e+00
0.72002, 0.120038, 0.320391, 0.631328, 2.669080e+00, 5.259409e+00
0.73003, 0.120968, 0.324453, 0.626328, 2.682139e+00, 5.177632e+00
0.74002, 0.121100, 0.328984, 0.620859, 2.716635e+00, 5.126835e+00
0.75001, 0.120699, 0.333359, 0.614922, 2.761899e+00, 5.094659e+00
0.76001, 0.120150, 0.337891, 0.607891, 2.812246e+00, 5.059442e+00
0.77003, 0.119627, 0.343203, 0.601484, 2.868936e+00, 5.027986e+00
0.78002, 0.119274, 0.348984, 0.595078, 2.925896e+00, 4.989155e+00
0.79001, 0.118997, 0.354922, 0.587266, 2.982614e+00, 4.935133e+00
0.80003, 0.118215, 0.360703, 0.581328, 3.051244e+00, 4.917545e+00
0.81001, 0.116946, 0.366641, 0.576016, 3.135125e+00, 4.925480e+00
0.82002, 0.115054, 0.373359, 0.568672, 3.245075e+00, 4.942646e+00
0.83002, 0.113705, 0.380391, 0.563047, 3.345417e+00, 4.951822e+00
0.84002, 0.113114, 0.388203, 0.555859, 3.431959e+00, 4.914146e+00
0.85002, 0.112443, 0.397578, 0.548203, 3.535809e+00, 4.875373e+00
0.86000, 0.111198, 0.408359, 0.542266, 3.672364e+00, 4.876579e+00
0.87002, 0.109737, 0.422891, 0.534141, 3.853679e+00, 4.867468e+00
0.88003, 0.107669, 0.438203, 0.525234, 4.069924e+00, 4.878249e+00
0.89002, 0.105495, 0.454453, 0.515703, 4.307820e+00, 4.888416e+00
0.90001, 0.104652, 0.484609, 0.504922, 4.630654e+00, 4.824749e+00
0.91002, 0.106178, 0.497891, 0.493203, 4.689205e+00, 4.645058e+00
0.92001, 0.108366, 0.491953, 0.480703, 4.539752e+00, 4.435937e+00
0.93002, 0.107870, 0.483359, 0.468047, 4.480962e+00, 4.339008e+00
0.94001, 0.104219, 0.473516, 0.455078, 4.543467e+00, 4.366556e+00
0.95003, 0.100723, 0.463828, 0.441641, 4.604970e+00, 4.384689e+00
0.96002, 0.100724, 0.612422, 0.428047, 6.080208e+00, 4.249708e+00
0.97003, 0.102387, 0.602578, 0.414297, 5.885310e+00, 4.046389e+00
0.98003, 0.102459, 0.592266, 0.400234, 5.780534e+00, 3.906302e+00
0.99003, 0.100825, 0.581641, 0.386016, 5.768786e+00, 3.828552e+00
1.00001, 0.100830, 0.570859, 0.371953, 5.661622e+00, 3.688926e+00
1.01002, 0.104381, 0.559922, 0.357578, 5.364207e+00, 3.425698e+00
1.02002, 0.105156, 0.548672, 0.343359, 5.217710e+00, 3.265248e+00
1.03002, 0.104460, 0.537109, 0.329141, 5.141777e+00, 3.150881e+00
1.04002, 0.104340, 0.525547, 0.314922, 5.036851e+00, 3.018217e+00
1.05001, 0.102889, 0.514141, 0.301016, 4.997026e+00, 2.925625e+00
1.06003, 0.099914, 0.502578, 0.287266, 5.030092e+00, 2.875120e+00
1.07003, 0.101037, 0.490859, 0.273828, 4.858236e+00, 2.710189e+00
1.08002, 0.102052, 0.479141, 0.261172, 4.695081e+00, 2.559213e+00
1.09002, 0.101061, 0.467422, 0.250078, 4.625133e+00, 2.474520e+00
1.10000, 0.100196, 0.455859, 0.338984, 4.549668e+00, 3.383206e+00
1.11002, 0.100655, 0.444297, 0.325234, 4.414076e+00, 3.231194e+00
1.12001, 0.100401, 0.433203, 0.311484, 4.314732e+00, 3.102405e+00
1.13001, 0.101550, 0.239297, 0.297422, 2.356452e+00, 2.928832e+00
1.14001, 0.100227, 0.218203, 0.283359, 2.177085e+00, 2.827170e+00
1.15003, 0.100338, 0.197109, 0.269141, 1.964453e+00, 2.682338e+00
1.16001, 0.097683, 0.176172, 0.254766, 1.803510e+00, 2.608092e+00
1.17003, 0.097345, 0.155234, 0.240078, 1.594678e+00, 2.466253e+00
1.18001, 0.096324, 0.133203, 0.225391, 1.382865e+00, 2.339922e+00
1.19001, 0.096830, 0.110703, 0.210234, 1.143270e+00, 2.171165e+00
